#	Temperatur 1 (°C)	Temperatur 2 (°C)	Temperatur 3 (°C)	Temperatur 4 (°C)	Temperatur 5 (°C)	Temperatur 6 (°C)	Temperatur 7 (°C)	Temperatur 8 (°C)	Zeit (s)
1	29.48	28.85	28.20	28.60	28.13	26.75	28.24	27.16	0.0000
2	29.43	28.54	27.85	28.55	27.93	26.51	28.16	27.16	2.0000
3	29.37	28.51	27.85	28.49	27.76	27.05	28.06	27.15	4.0000
4	29.29	28.77	28.22	28.41	27.70	28.03	27.96	27.15	6.0000
5	29.22	29.26	28.83	28.35	27.80	29.14	27.90	27.15	8.0000
6	29.19	29.85	29.58	28.32	28.03	30.26	27.90	27.15	10.0000
7	29.19	30.50	30.39	28.34	28.35	31.33	27.99	27.16	12.0000
8	29.23	31.18	31.21	28.42	28.73	32.34	28.13	27.15	14.0000
9	29.31	31.84	32.02	28.53	29.17	33.28	28.33	27.15	16.0000
10	29.41	32.49	32.80	28.67	29.62	34.16	28.60	27.15	18.0000
11	29.55	33.12	33.54	28.86	30.11	34.96	28.90	27.15	20.0000
12	29.72	33.72	34.25	29.07	30.60	35.72	29.24	27.15	22.0000
13	29.90	34.29	34.93	29.30	31.11	36.44	29.62	27.15	24.0000
14	30.09	34.84	35.56	29.54	31.61	37.10	30.00	27.15	26.0000
15	30.31	35.36	36.16	29.80	32.12	37.74	30.40	27.15	28.0000
16	30.52	35.86	36.72	30.07	32.62	38.33	30.81	27.16	30.0000
17	30.75	36.34	37.26	30.35	33.13	38.90	31.22	27.16	32.0000
18	30.99	36.79	37.77	30.63	33.62	39.44	31.65	27.17	34.0000
19	31.22	37.22	38.25	30.91	34.11	39.96	32.06	27.18	36.0000
20	31.46	37.64	38.70	31.19	34.60	40.47	32.48	27.18	38.0000
21	31.70	38.04	39.13	31.47	35.08	40.95	32.89	27.20	40.0000
22	31.95	38.42	39.54	31.76	35.55	41.41	33.30	27.21	42.0000
23	32.20	38.78	39.92	32.04	36.02	41.85	33.69	27.23	44.0000
24	32.44	39.13	40.29	32.32	36.48	42.29	34.09	27.24	46.0000
25	32.69	39.48	40.65	32.60	36.93	42.71	34.46	27.27	48.0000
26	32.93	39.80	40.99	32.87	37.37	43.12	34.84	27.29	50.0000
27	33.18	40.12	41.31	33.15	37.80	43.51	35.21	27.32	52.0000
28	33.43	40.42	41.63	33.42	38.23	43.90	35.57	27.35	54.0000
29	33.67	40.72	41.93	33.69	38.64	44.27	35.92	27.37	56.0000
30	33.91	41.01	42.21	33.96	39.05	44.64	36.26	27.41	58.0000
31	34.15	41.29	42.49	34.22	39.45	45.00	36.59	27.46	60.0000
32	34.39	41.55	42.76	34.48	39.84	45.34	36.92	27.49	62.0000
33	34.63	41.82	43.02	34.73	40.23	45.68	37.23	27.53	64.0000
34	34.87	42.08	43.28	34.99	40.61	46.01	37.54	27.58	66.0000
35	35.11	42.33	43.52	35.24	40.98	46.33	37.84	27.63	68.0000
36	35.34	42.57	43.76	35.49	41.34	46.65	38.14	27.69	70.0000
37	35.58	42.81	43.99	35.73	41.70	46.96	38.42	27.75	72.0000
38	35.80	43.05	44.22	35.97	42.05	47.26	38.70	27.80	74.0000
39	36.03	43.28	44.43	36.20	42.39	47.56	38.97	27.86	76.0000
40	36.26	43.50	44.65	36.44	42.72	47.84	39.24	27.92	78.0000
41	36.48	43.72	44.85	36.66	43.04	48.13	39.50	27.98	80.0000
42	36.70	43.94	45.06	36.89	43.36	48.39	39.75	28.05	82.0000
43	36.92	44.15	45.26	37.12	43.67	48.67	39.99	28.12	84.0000
44	37.15	44.36	45.46	37.34	43.99	48.94	40.24	28.18	86.0000
45	37.36	44.57	45.65	37.56	44.29	49.20	40.47	28.25	88.0000
46	37.57	44.77	45.84	37.78	44.59	49.46	40.70	28.32	90.0000
47	37.79	44.97	46.02	37.99	44.88	49.71	40.92	28.39	92.0000
48	38.00	45.17	46.20	38.20	45.17	49.96	41.14	28.47	94.0000
49	38.21	45.36	46.38	38.41	45.45	50.20	41.35	28.54	96.0000
50	38.42	45.55	46.55	38.62	45.73	50.44	41.57	28.63	98.0000
51	38.62	45.74	46.73	38.81	46.00	50.67	41.78	28.70	100.0000
52	38.83	45.86	46.81	39.02	46.26	50.59	41.97	28.77	102.0000
53	39.03	45.73	46.58	39.21	46.46	49.89	42.15	28.85	104.0000
54	39.22	45.34	46.03	39.39	46.55	48.84	42.31	28.93	106.0000
55	39.39	44.78	45.28	39.53	46.48	47.69	42.40	29.02	108.0000
56	39.51	44.12	44.45	39.63	46.30	46.55	42.41	29.09	110.0000
57	39.60	43.43	43.57	39.67	46.02	45.48	42.35	29.18	112.0000
58	39.63	42.75	42.71	39.67	45.68	44.46	42.21	29.26	114.0000
59	39.63	42.07	41.88	39.62	45.30	43.55	42.01	29.33	116.0000
60	39.60	41.43	41.09	39.53	44.88	42.70	41.75	29.41	118.0000
61	39.53	40.82	40.35	39.41	44.44	41.92	41.45	29.50	120.0000
62	39.44	40.24	39.66	39.26	44.00	41.21	41.12	29.58	122.0000
63	39.33	39.70	39.01	39.09	43.55	40.55	40.76	29.65	124.0000
64	39.21	39.19	38.40	38.91	43.10	39.94	40.39	29.73	126.0000
65	39.08	38.72	37.85	38.72	42.64	39.37	40.01	29.80	128.0000
66	38.93	38.27	37.33	38.52	42.20	38.85	39.61	29.88	130.0000
67	38.78	37.86	36.86	38.31	41.76	38.36	39.22	29.95	132.0000
68	38.63	37.48	36.42	38.10	41.32	37.90	38.83	30.02	134.0000
69	38.46	37.11	36.01	37.89	40.90	37.47	38.45	30.09	136.0000
70	38.30	36.78	35.64	37.68	40.48	37.07	38.07	30.15	138.0000
71	38.14	36.47	35.29	37.47	40.07	36.69	37.70	30.22	140.0000
72	37.98	36.18	34.97	37.25	39.66	36.32	37.33	30.27	142.0000
73	37.82	35.90	34.67	37.04	39.28	35.99	36.98	30.33	144.0000
74	37.65	35.66	34.39	36.84	38.90	35.66	36.64	30.38	146.0000
75	37.49	35.41	34.14	36.64	38.54	35.37	36.32	30.42	148.0000
76	37.33	35.19	33.90	36.45	38.19	35.08	36.00	30.47	150.0000
77	37.18	34.98	33.69	36.25	37.85	34.81	35.70	30.50	152.0000
78	37.02	34.79	33.49	36.07	37.52	34.55	35.41	30.54	154.0000
79	36.86	34.60	33.31	35.88	37.19	34.30	35.13	30.58	156.0000
80	36.71	34.44	33.13	35.70	36.89	34.07	34.86	30.59	158.0000
81	36.57	34.28	32.97	35.53	36.58	33.85	34.61	30.62	160.0000
82	36.42	34.13	32.82	35.35	36.30	33.64	34.37	30.64	162.0000
83	36.27	33.98	32.69	35.19	36.02	33.44	34.13	30.66	164.0000
84	36.14	33.86	32.56	35.03	35.76	33.25	33.92	30.68	166.0000
85	36.00	33.73	32.45	34.87	35.50	33.08	33.71	30.68	168.0000
86	35.86	33.61	32.34	34.71	35.25	32.90	33.51	30.69	170.0000
87	35.73	33.51	32.24	34.56	35.01	32.74	33.32	30.70	172.0000
88	35.60	33.40	32.15	34.42	34.78	32.59	33.14	30.71	174.0000
89	35.47	33.31	32.06	34.28	34.56	32.44	32.96	30.71	176.0000
90	35.35	33.21	31.98	34.14	34.35	32.31	32.80	30.70	178.0000
91	35.23	33.13	31.91	34.01	34.14	32.18	32.65	30.70	180.0000
92	35.11	33.05	31.84	33.88	33.95	32.05	32.50	30.69	182.0000
93	35.00	32.97	31.78	33.76	33.76	31.94	32.36	30.68	184.0000
94	34.89	32.90	31.72	33.63	33.58	31.83	32.23	30.67	186.0000
95	34.78	32.83	31.67	33.52	33.41	31.73	32.11	30.67	188.0000
96	34.67	32.77	31.63	33.41	33.25	31.63	32.00	30.64	190.0000
97	34.56	32.71	31.58	33.30	33.09	31.53	31.88	30.63	192.0000
98	34.46	32.66	31.54	33.19	32.94	31.44	31.78	30.62	194.0000
99	34.36	32.61	31.50	33.09	32.80	31.36	31.68	30.59	196.0000
100	34.27	32.56	31.47	32.99	32.66	31.29	31.59	30.57	198.0000
101	34.18	32.51	31.44	32.90	32.53	31.21	31.50	30.56	200.0000
102	34.09	32.49	31.44	32.81	32.41	31.28	31.42	30.54	202.0000
103	34.00	32.68	31.72	32.72	32.32	32.05	31.35	30.52	204.0000
104	33.93	33.19	32.38	32.64	32.34	33.33	31.30	30.50	206.0000
105	33.87	33.94	33.31	32.60	32.54	34.79	31.31	30.48	208.0000
106	33.84	34.81	34.38	32.60	32.89	36.26	31.40	30.45	210.0000
107	33.87	35.74	35.52	32.65	33.35	37.66	31.58	30.43	212.0000
108	33.95	36.68	36.65	32.77	33.88	38.97	31.85	30.41	214.0000
109	34.08	37.60	37.76	32.94	34.48	40.21	32.19	30.39	216.0000
110	34.24	38.50	38.82	33.16	35.10	41.33	32.59	30.37	218.0000
111	34.44	39.35	39.83	33.42	35.75	42.39	33.06	30.35	220.0000
112	34.68	40.18	40.79	33.70	36.41	43.36	33.55	30.33	222.0000
113	34.93	40.95	41.69	34.02	37.07	44.27	34.08	30.31	224.0000
114	35.21	41.69	42.52	34.35	37.74	45.13	34.64	30.30	226.0000
115	35.49	42.39	43.31	34.70	38.41	45.93	35.19	30.28	228.0000
116	35.79	43.04	44.05	35.06	39.07	46.69	35.76	30.27	230.0000
117	36.10	43.68	44.75	35.42	39.72	47.40	36.33	30.26	232.0000
118	36.41	44.27	45.40	35.79	40.37	48.09	36.90	30.25	234.0000
119	36.73	44.83	46.01	36.16	41.01	48.74	37.47	30.24	236.0000
120	37.05	45.38	46.59	36.53	41.64	49.36	38.03	30.24	238.0000
121	37.37	45.89	47.12	36.90	42.25	49.96	38.58	30.24	240.0000
122	37.70	46.37	47.64	37.27	42.86	50.53	39.13	30.25	242.0000
123	38.02	46.84	48.13	37.64	43.45	51.07	39.65	30.26	244.0000
124	38.35	47.28	48.59	38.00	44.03	51.60	40.18	30.28	246.0000
125	38.67	47.71	49.03	38.36	44.59	52.11	40.68	30.30	248.0000
126	38.99	48.11	49.44	38.71	45.14	52.60	41.18	30.32	250.0000
127	39.31	48.50	49.84	39.06	45.68	53.07	41.66	30.34	252.0000
128	39.63	48.88	50.21	39.41	46.21	53.53	42.13	30.38	254.0000
129	39.94	49.24	50.57	39.74	46.73	53.97	42.59	30.42	256.0000
130	40.26	49.59	50.91	40.08	47.23	54.40	43.02	30.45	258.0000
131	40.56	49.93	51.23	40.41	47.72	54.80	43.44	30.50	260.0000
132	40.87	50.25	51.54	40.73	48.21	55.21	43.86	30.55	262.0000
133	41.17	50.56	51.84	41.05	48.67	55.60	44.26	30.60	264.0000
134	41.48	50.87	52.13	41.36	49.13	55.98	44.64	30.66	266.0000
135	41.77	51.16	52.40	41.67	49.57	56.35	45.02	30.72	268.0000
136	42.06	51.44	52.67	41.97	50.00	56.70	45.38	30.78	270.0000
137	42.35	51.72	52.92	42.26	50.42	57.05	45.73	30.85	272.0000
138	42.64	51.99	53.18	42.56	50.84	57.39	46.07	30.92	274.0000
139	42.92	52.25	53.42	42.84	51.24	57.72	46.40	30.99	276.0000
140	43.20	52.51	53.65	43.12	51.64	58.04	46.72	31.07	278.0000
141	43.48	52.75	53.86	43.40	52.02	58.35	47.03	31.15	280.0000
142	43.76	53.00	54.08	43.67	52.39	58.65	47.33	31.23	282.0000
143	44.02	53.23	54.29	43.94	52.75	58.94	47.62	31.32	284.0000
144	44.28	53.46	54.50	44.20	53.09	59.23	47.90	31.40	286.0000
145	44.54	53.69	54.70	44.46	53.45	59.51	48.17	31.49	288.0000
146	44.81	53.91	54.89	44.71	53.78	59.78	48.43	31.58	290.0000
147	45.06	54.13	55.07	44.96	54.11	60.04	48.69	31.67	292.0000
148	45.32	54.34	55.26	45.20	54.44	60.30	48.94	31.76	294.0000
149	45.57	54.55	55.44	45.44	54.75	60.55	49.18	31.87	296.0000
150	45.81	54.75	55.61	45.68	55.06	60.79	49.42	31.95	298.0000
151	46.06	54.95	55.78	45.91	55.35	61.03	49.65	32.06	300.0000
152	46.30	55.13	55.92	46.13	55.65	61.15	49.88	32.15	302.0000
153	46.53	55.11	55.81	46.36	55.91	60.67	50.09	32.25	304.0000
154	46.76	54.81	55.37	46.57	56.07	59.73	50.27	32.35	306.0000
155	46.97	54.31	54.69	46.75	56.07	58.62	50.41	32.46	308.0000
156	47.14	53.69	53.88	46.88	55.95	57.48	50.46	32.56	310.0000
157	47.27	53.01	53.01	46.97	55.73	56.38	50.44	32.67	312.0000
158	47.35	52.32	52.15	47.00	55.43	55.35	50.33	32.76	314.0000
159	47.38	51.64	51.31	46.98	55.08	54.40	50.16	32.86	316.0000
160	47.39	50.98	50.49	46.92	54.68	53.51	49.93	32.96	318.0000
161	47.35	50.35	49.73	46.82	54.28	52.71	49.65	33.06	320.0000
162	47.30	49.77	49.02	46.70	53.84	51.96	49.33	33.16	322.0000
163	47.21	49.20	48.34	46.56	53.41	51.27	48.99	33.26	324.0000
164	47.11	48.68	47.72	46.39	52.96	50.62	48.62	33.36	326.0000
165	47.00	48.18	47.14	46.21	52.51	50.02	48.24	33.46	328.0000
166	46.87	47.72	46.60	46.03	52.07	49.47	47.85	33.55	330.0000
167	46.74	47.29	46.09	45.83	51.62	48.95	47.45	33.64	332.0000
168	46.60	46.89	45.62	45.62	51.17	48.46	47.05	33.73	334.0000
169	46.46	46.51	45.19	45.42	50.75	48.00	46.66	33.81	336.0000
170	46.31	46.16	44.79	45.22	50.33	47.56	46.26	33.90	338.0000
171	46.16	45.83	44.41	45.02	49.92	47.15	45.88	33.98	340.0000
172	46.00	45.52	44.07	44.81	49.51	46.76	45.51	34.06	342.0000
173	45.85	45.23	43.75	44.61	49.11	46.39	45.15	34.13	344.0000
174	45.70	44.96	43.44	44.41	48.72	46.04	44.80	34.20	346.0000
175	45.55	44.70	43.16	44.21	48.35	45.71	44.45	34.26	348.0000
176	45.39	44.46	42.90	44.02	47.98	45.38	44.13	34.32	350.0000
177	45.24	44.24	42.65	43.82	47.61	45.08	43.80	34.38	352.0000
178	45.09	44.02	42.42	43.63	47.27	44.79	43.50	34.43	354.0000
179	44.93	43.82	42.21	43.45	46.92	44.51	43.20	34.48	356.0000
180	44.79	43.63	42.01	43.27	46.59	44.24	42.91	34.53	358.0000
181	44.64	43.45	41.83	43.09	46.27	43.99	42.64	34.56	360.0000
182	44.50	43.28	41.65	42.91	45.96	43.73	42.37	34.61	362.0000
183	44.36	43.12	41.49	42.74	45.66	43.51	42.12	34.64	364.0000
184	44.21	42.97	41.34	42.58	45.37	43.27	41.89	34.67	366.0000
185	44.08	42.83	41.19	42.42	45.09	43.07	41.66	34.70	368.0000
186	43.94	42.69	41.06	42.26	44.82	42.86	41.43	34.72	370.0000
187	43.80	42.56	40.93	42.10	44.55	42.66	41.22	34.74	372.0000
188	43.66	42.43	40.81	41.94	44.30	42.47	41.02	34.76	374.0000
189	43.53	42.31	40.69	41.80	44.05	42.28	40.83	34.77	376.0000
190	43.40	42.19	40.58	41.66	43.81	42.11	40.65	34.79	378.0000
191	43.27	42.08	40.48	41.52	43.58	41.94	40.47	34.80	380.0000
192	43.15	41.98	40.39	41.38	43.37	41.79	40.31	34.81	382.0000
193	43.03	41.88	40.30	41.25	43.15	41.63	40.15	34.81	384.0000
194	42.91	41.78	40.21	41.12	42.95	41.49	40.00	34.81	386.0000
195	42.80	41.70	40.13	41.00	42.75	41.35	39.85	34.81	388.0000
196	42.69	41.61	40.05	40.87	42.56	41.21	39.71	34.81	390.0000
197	42.57	41.53	39.98	40.75	42.37	41.09	39.58	34.81	392.0000
198	42.46	41.45	39.91	40.64	42.19	40.96	39.47	34.81	394.0000
199	42.36	41.37	39.85	40.52	42.02	40.84	39.34	34.80	396.0000
200	42.25	41.30	39.79	40.41	41.85	40.73	39.23	34.79	398.0000
201	42.15	41.23	39.73	40.31	41.69	40.62	39.12	34.79	400.0000
202	42.05	41.17	39.69	40.21	41.54	40.61	39.02	34.78	402.0000
203	41.95	41.32	39.91	40.11	41.41	41.26	38.92	34.77	404.0000
204	41.86	41.77	40.51	40.01	41.40	42.46	38.85	34.75	406.0000
205	41.79	42.47	41.38	39.95	41.55	43.84	38.83	34.74	408.0000
206	41.76	43.29	42.40	39.93	41.84	45.25	38.89	34.73	410.0000
207	41.78	44.19	43.49	39.97	42.25	46.60	39.04	34.72	412.0000
208	41.84	45.09	44.58	40.07	42.73	47.87	39.28	34.70	414.0000
209	41.94	45.98	45.64	40.22	43.29	49.04	39.58	34.69	416.0000
210	42.09	46.84	46.66	40.42	43.86	50.13	39.96	34.68	418.0000
211	42.28	47.67	47.63	40.65	44.46	51.14	40.39	34.66	420.0000
212	42.49	48.46	48.55	40.92	45.08	52.08	40.85	34.65	422.0000
213	42.74	49.21	49.41	41.22	45.70	52.95	41.35	34.64	424.0000
214	42.99	49.92	50.22	41.53	46.33	53.76	41.86	34.63	426.0000
215	43.26	50.59	50.97	41.86	46.95	54.53	42.40	34.62	428.0000
216	43.55	51.23	51.68	42.19	47.57	55.25	42.94	34.61	430.0000
217	43.84	51.83	52.34	42.54	48.19	55.93	43.49	34.61	432.0000
218	44.13	52.40	52.97	42.88	48.80	56.57	44.03	34.61	434.0000
219	44.43	52.94	53.54	43.23	49.39	57.19	44.58	34.61	436.0000
220	44.75	53.45	54.09	43.59	49.98	57.77	45.11	34.61	438.0000
221	45.05	53.94	54.60	43.93	50.55	58.33	45.64	34.62	440.0000
222	45.36	54.40	55.09	44.28	51.11	58.86	46.16	34.63	442.0000
223	45.67	54.84	55.54	44.62	51.67	59.37	46.67	34.65	444.0000
224	45.98	55.27	55.97	44.96	52.21	59.86	47.16	34.66	446.0000
225	46.29	55.67	56.38	45.30	52.74	60.33	47.64	34.69	448.0000
226	46.59	56.05	56.76	45.63	53.25	60.79	48.12	34.71	450.0000
227	46.89	56.41	57.13	45.96	53.76	61.22	48.57	34.75	452.0000
228	47.19	56.77	57.46	46.28	54.25	61.64	49.02	34.78	454.0000
229	47.49	57.11	57.79	46.60	54.73	62.05	49.44	34.82	456.0000
230	47.79	57.44	58.11	46.91	55.19	62.44	49.86	34.87	458.0000
231	48.08	57.75	58.40	47.21	55.65	62.81	50.26	34.91	460.0000
232	48.36	58.05	58.68	47.51	56.10	63.19	50.66	34.97	462.0000
233	48.65	58.34	58.96	47.81	56.53	63.54	51.04	35.03	464.0000
234	48.94	58.62	59.21	48.10	56.95	63.89	51.41	35.08	466.0000
235	49.22	58.90	59.46	48.39	57.37	64.22	51.76	35.15	468.0000
236	49.49	59.15	59.70	48.67	57.77	64.55	52.10	35.22	470.0000
237	49.76	59.41	59.92	48.95	58.15	64.85	52.43	35.28	472.0000
238	50.03	59.66	60.14	49.21	58.53	65.16	52.74	35.35	474.0000
239	50.30	59.90	60.35	49.48	58.90	65.45	53.05	35.43	476.0000
240	50.56	60.13	60.56	49.74	59.26	65.74	53.36	35.51	478.0000
241	50.82	60.36	60.75	49.99	59.61	66.01	53.64	35.59	480.0000
242	51.08	60.58	60.94	50.24	59.96	66.28	53.92	35.67	482.0000
243	51.33	60.79	61.13	50.48	60.29	66.55	54.19	35.76	484.0000
244	51.58	61.00	61.31	50.73	60.61	66.80	54.45	35.84	486.0000
245	51.82	61.20	61.48	50.96	60.93	67.05	54.70	35.93	488.0000
246	52.07	61.40	61.65	51.19	61.24	67.28	54.94	36.02	490.0000
247	52.31	61.59	61.81	51.41	61.54	67.53	55.17	36.11	492.0000
248	52.54	61.78	61.97	51.63	61.83	67.75	55.40	36.21	494.0000
249	52.77	61.96	62.12	51.85	62.10	67.97	55.62	36.31	496.0000
250	53.00	62.14	62.28	52.07	62.38	68.18	55.85	36.41	498.0000
251	53.22	62.31	62.42	52.28	62.64	68.38	56.06	36.50	500.0000
252	53.44	62.47	62.54	52.48	62.91	68.49	56.25	36.60	502.0000
253	53.66	62.44	62.42	52.69	63.14	68.01	56.45	36.70	504.0000
254	53.87	62.14	61.98	52.88	63.28	67.08	56.62	36.80	506.0000
255	54.06	61.62	61.30	53.04	63.27	65.96	56.73	36.91	508.0000
256	54.21	60.99	60.49	53.16	63.14	64.81	56.78	37.01	510.0000
257	54.32	60.30	59.61	53.23	62.89	63.69	56.74	37.11	512.0000
258	54.38	59.59	58.74	53.24	62.58	62.64	56.62	37.21	514.0000
259	54.41	58.89	57.88	53.21	62.20	61.66	56.43	37.31	516.0000
260	54.38	58.20	57.06	53.14	61.80	60.76	56.19	37.41	518.0000
261	54.33	57.55	56.27	53.02	61.37	59.93	55.89	37.51	520.0000
262	54.25	56.94	55.53	52.87	60.92	59.15	55.56	37.61	522.0000
263	54.15	56.35	54.85	52.72	60.46	58.44	55.20	37.71	524.0000
264	54.03	55.81	54.21	52.54	59.99	57.77	54.82	37.81	526.0000
265	53.90	55.29	53.61	52.35	59.53	57.16	54.43	37.91	528.0000
266	53.75	54.81	53.06	52.14	59.06	56.57	54.02	38.00	530.0000
267	53.60	54.36	52.54	51.93	58.60	56.03	53.61	38.09	532.0000
268	53.45	53.93	52.06	51.72	58.14	55.52	53.20	38.17	534.0000
269	53.28	53.54	51.60	51.49	57.69	55.03	52.79	38.26	536.0000
270	53.11	53.16	51.18	51.28	57.25	54.57	52.39	38.34	538.0000
271	52.94	52.80	50.79	51.06	56.82	54.14	51.99	38.42	540.0000
272	52.77	52.47	50.42	50.84	56.38	53.72	51.60	38.50	542.0000
273	52.60	52.16	50.08	50.62	55.97	53.33	51.22	38.57	544.0000
274	52.43	51.87	49.76	50.40	55.56	52.96	50.85	38.64	546.0000
275	52.26	51.59	49.46	50.18	55.16	52.60	50.49	38.70	548.0000
276	52.08	51.33	49.18	49.97	54.78	52.25	50.13	38.76	550.0000
277	51.91	51.08	48.92	49.77	54.40	51.93	49.80	38.81	552.0000
278	51.74	50.85	48.67	49.56	54.03	51.61	49.48	38.86	554.0000
279	51.57	50.62	48.44	49.35	53.67	51.31	49.17	38.90	556.0000
280	51.41	50.42	48.22	49.16	53.32	51.02	48.86	38.95	558.0000
281	51.24	50.22	48.02	48.96	52.99	50.75	48.57	38.99	560.0000
282	51.08	50.03	47.83	48.77	52.66	50.48	48.30	39.03	562.0000
283	50.92	49.85	47.65	48.59	52.34	50.22	48.03	39.06	564.0000
284	50.76	49.67	47.47	48.41	52.03	49.98	47.78	39.09	566.0000
285	50.60	49.51	47.31	48.23	51.73	49.74	47.53	39.10	568.0000
286	50.45	49.35	47.15	48.05	51.43	49.51	47.29	39.13	570.0000
287	50.30	49.20	47.01	47.88	51.15	49.29	47.06	39.15	572.0000
288	50.15	49.06	46.87	47.71	50.88	49.08	46.84	39.16	574.0000
289	50.00	48.92	46.74	47.55	50.61	48.88	46.63	39.17	576.0000
290	49.85	48.79	46.61	47.39	50.35	48.68	46.44	39.18	578.0000
291	49.71	48.66	46.49	47.23	50.10	48.49	46.25	39.18	580.0000
292	49.58	48.54	46.38	47.08	49.86	48.31	46.06	39.19	582.0000
293	49.44	48.42	46.27	46.93	49.63	48.14	45.88	39.19	584.0000
294	49.30	48.31	46.17	46.79	49.40	47.97	45.72	39.19	586.0000
295	49.17	48.20	46.07	46.65	49.18	47.80	45.56	39.19	588.0000
296	49.04	48.10	45.97	46.51	48.97	47.65	45.40	39.18	590.0000
297	48.92	47.99	45.89	46.37	48.76	47.49	45.25	39.17	592.0000
298	48.79	47.90	45.80	46.24	48.55	47.35	45.11	39.16	594.0000
299	48.66	47.80	45.72	46.11	48.36	47.21	44.97	39.15	596.0000
300	48.54	47.71	45.63	45.99	48.18	47.07	44.85	39.14	598.0000
301	48.42	47.62	45.56	45.86	47.99	46.94	44.72	39.13	600.0000
302	48.31	47.54	45.49	45.75	47.82	46.83	44.60	39.11	602.0000
303	48.19	47.58	45.59	45.63	47.66	47.23	44.49	39.10	604.0000
304	48.08	47.92	46.05	45.52	47.58	48.26	44.39	39.08	606.0000
305	47.99	48.52	46.83	45.43	47.65	49.56	44.34	39.07	608.0000
306	47.93	49.29	47.79	45.39	47.88	50.93	44.36	39.05	610.0000
307	47.91	50.13	48.83	45.39	48.22	52.27	44.47	39.03	612.0000
308	47.94	51.01	49.90	45.45	48.66	53.52	44.66	39.01	614.0000
309	48.02	51.88	50.93	45.58	49.16	54.68	44.93	38.99	616.0000
310	48.14	52.73	51.94	45.75	49.70	55.76	45.26	38.98	618.0000
311	48.30	53.54	52.90	45.96	50.26	56.76	45.65	38.96	620.0000
312	48.49	54.31	53.80	46.20	50.85	57.69	46.08	38.94	622.0000
313	48.70	55.04	54.64	46.46	51.44	58.54	46.55	38.92	624.0000
314	48.94	55.74	55.44	46.76	52.03	59.35	47.04	38.91	626.0000
315	49.19	56.40	56.18	47.06	52.64	60.10	47.55	38.89	628.0000
316	49.45	57.02	56.88	47.38	53.22	60.80	48.07	38.88	630.0000
317	49.72	57.61	57.53	47.70	53.81	61.46	48.59	38.87	632.0000
318	50.00	58.16	58.14	48.03	54.39	62.09	49.12	38.86	634.0000
319	50.28	58.68	58.71	48.36	54.96	62.68	49.64	38.86	636.0000
320	50.56	59.19	59.24	48.69	55.52	63.25	50.16	38.86	638.0000
321	50.85	59.66	59.74	49.02	56.07	63.78	50.67	38.86	640.0000
322	51.14	60.10	60.21	49.35	56.61	64.30	51.17	38.86	642.0000
